%  AIfA EU-HOU server: LAB  survey data 
% wanted position:  l, b, RA, DEC, interpolated  NH and beam width FWHM
% 71.54 ;  24.72 ; 273.76 ;  44.04 ;  0.333E+21;  19.99
%%LAB     777  datapoints: v_lsr [km/s], T_B [K], freq. [Mhz], wavel. [cm] 
    -399.83      0.00   1422.300   21.07800
    -398.80      0.00   1422.295   21.07808
    -397.77     -0.00   1422.290   21.07815
    -396.74     -0.00   1422.285   21.07822
    -395.71     -0.00   1422.281   21.07829
    -394.67     -0.00   1422.276   21.07836
    -393.64     -0.00   1422.271   21.07844
    -392.61     -0.00   1422.266   21.07851
    -391.58     -0.00   1422.261   21.07858
    -390.55     -0.00   1422.256   21.07866
    -389.52     -0.00   1422.251   21.07873
    -388.49     -0.00   1422.246   21.07880
    -387.46     -0.00   1422.242   21.07887
    -386.43     -0.00   1422.237   21.07894
    -385.40     -0.00   1422.232   21.07902
    -384.37     -0.00   1422.227   21.07909
    -383.34     -0.00   1422.222   21.07916
    -382.31     -0.00   1422.217   21.07923
    -381.28     -0.00   1422.212   21.07931
    -380.25     -0.00   1422.207   21.07938
    -379.22     -0.00   1422.203   21.07945
    -378.19     -0.00   1422.198   21.07952
    -377.16      0.00   1422.193   21.07960
    -376.13      0.01   1422.188   21.07967
    -375.10      0.00   1422.183   21.07974
    -374.07     -0.00   1422.178   21.07981
    -373.03     -0.00   1422.173   21.07988
    -372.00     -0.00   1422.168   21.07996
    -370.97     -0.00   1422.163   21.08003
    -369.94     -0.00   1422.159   21.08010
    -368.91     -0.00   1422.154   21.08017
    -367.88     -0.00   1422.149   21.08025
    -366.85      0.00   1422.144   21.08032
    -365.82      0.00   1422.139   21.08039
    -364.79      0.00   1422.134   21.08047
    -363.76     -0.00   1422.129   21.08054
    -362.73     -0.00   1422.124   21.08061
    -361.70     -0.00   1422.120   21.08068
    -360.67     -0.00   1422.115   21.08075
    -359.64     -0.00   1422.110   21.08082
    -358.61     -0.00   1422.105   21.08090
    -357.58     -0.00   1422.100   21.08097
    -356.55      0.00   1422.095   21.08104
    -355.52      0.00   1422.090   21.08111
    -354.49      0.00   1422.085   21.08119
    -353.46     -0.00   1422.080   21.08126
    -352.43     -0.00   1422.075   21.08133
    -351.39     -0.00   1422.071   21.08140
    -350.36     -0.00   1422.066   21.08148
    -349.33     -0.00   1422.061   21.08155
    -348.30     -0.00   1422.056   21.08162
    -347.27     -0.00   1422.051   21.08169
    -346.24     -0.00   1422.046   21.08177
    -345.21     -0.00   1422.042   21.08184
    -344.18     -0.00   1422.036   21.08191
    -343.15     -0.00   1422.032   21.08198
    -342.12     -0.00   1422.027   21.08206
    -341.09     -0.00   1422.022   21.08213
    -340.06     -0.00   1422.017   21.08220
    -339.03     -0.00   1422.012   21.08227
    -338.00     -0.00   1422.007   21.08234
    -336.97     -0.00   1422.002   21.08242
    -335.94     -0.00   1421.997   21.08249
    -334.91      0.00   1421.993   21.08256
    -333.88      0.00   1421.988   21.08264
    -332.85     -0.00   1421.983   21.08271
    -331.82      0.00   1421.978   21.08278
    -330.78      0.00   1421.973   21.08285
    -329.75      0.00   1421.968   21.08292
    -328.72      0.00   1421.963   21.08300
    -327.69      0.00   1421.958   21.08307
    -326.66      0.00   1421.953   21.08314
    -325.63      0.00   1421.949   21.08321
    -324.60      0.00   1421.944   21.08329
    -323.57      0.00   1421.939   21.08336
    -322.54      0.00   1421.934   21.08343
    -321.51      0.00   1421.929   21.08351
    -320.48     -0.00   1421.924   21.08358
    -319.45     -0.00   1421.919   21.08365
    -318.42      0.00   1421.914   21.08372
    -317.39      0.00   1421.910   21.08379
    -316.36      0.00   1421.905   21.08386
    -315.33      0.00   1421.900   21.08394
    -314.30      0.00   1421.895   21.08401
    -313.27      0.00   1421.890   21.08408
    -312.24      0.01   1421.885   21.08415
    -311.21      0.01   1421.880   21.08423
    -310.18      0.01   1421.875   21.08430
    -309.14      0.00   1421.870   21.08437
    -308.11      0.00   1421.865   21.08445
    -307.08      0.00   1421.861   21.08452
    -306.05      0.00   1421.856   21.08459
    -305.02      0.00   1421.851   21.08466
    -303.99      0.00   1421.846   21.08473
    -302.96      0.00   1421.841   21.08481
    -301.93      0.00   1421.836   21.08488
    -300.90      0.00   1421.832   21.08495
    -299.87      0.01   1421.827   21.08502
    -298.84      0.01   1421.822   21.08510
    -297.81      0.01   1421.817   21.08517
    -296.78      0.01   1421.812   21.08524
    -295.75      0.01   1421.807   21.08532
    -294.72      0.01   1421.802   21.08538
    -293.69      0.01   1421.797   21.08546
    -292.66      0.01   1421.792   21.08553
    -291.63      0.00   1421.787   21.08560
    -290.60      0.00   1421.783   21.08568
    -289.57      0.00   1421.778   21.08575
    -288.54      0.01   1421.773   21.08582
    -287.50      0.00   1421.768   21.08589
    -286.47      0.00   1421.763   21.08596
    -285.44      0.00   1421.758   21.08604
    -284.41      0.00   1421.753   21.08611
    -283.38      0.00   1421.748   21.08618
    -282.35      0.00   1421.744   21.08625
    -281.32      0.00   1421.739   21.08633
    -280.29      0.01   1421.734   21.08640
    -279.26      0.01   1421.729   21.08647
    -278.23      0.01   1421.724   21.08654
    -277.20      0.00   1421.719   21.08662
    -276.17      0.00   1421.714   21.08669
    -275.14      0.01   1421.709   21.08676
    -274.11      0.01   1421.704   21.08683
    -273.08      0.01   1421.700   21.08691
    -272.05      0.00   1421.695   21.08698
    -271.02      0.00   1421.690   21.08705
    -269.99      0.00   1421.685   21.08712
    -268.96      0.00   1421.680   21.08720
    -267.93      0.01   1421.675   21.08727
    -266.89      0.00   1421.670   21.08734
    -265.86      0.00   1421.665   21.08741
    -264.83      0.00   1421.661   21.08749
    -263.80      0.00   1421.656   21.08756
    -262.77      0.00   1421.651   21.08763
    -261.74      0.00   1421.646   21.08770
    -260.71      0.01   1421.641   21.08778
    -259.68      0.01   1421.636   21.08785
    -258.65      0.01   1421.631   21.08792
    -257.62      0.00   1421.626   21.08799
    -256.59      0.00   1421.621   21.08807
    -255.56      0.01   1421.617   21.08814
    -254.53      0.00   1421.612   21.08821
    -253.50      0.00   1421.607   21.08828
    -252.47      0.00   1421.602   21.08835
    -251.44      0.00   1421.597   21.08842
    -250.41      0.00   1421.592   21.08850
    -249.38      0.00   1421.587   21.08857
    -248.35      0.00   1421.582   21.08864
    -247.32      0.00   1421.578   21.08872
    -246.29      0.00   1421.573   21.08879
    -245.25      0.00   1421.568   21.08886
    -244.22      0.00   1421.563   21.08893
    -243.19      0.00   1421.558   21.08901
    -242.16      0.00   1421.553   21.08908
    -241.13      0.00   1421.548   21.08915
    -240.10      0.00   1421.543   21.08922
    -239.07      0.00   1421.539   21.08929
    -238.04      0.00   1421.534   21.08937
    -237.01      0.00   1421.529   21.08944
    -235.98      0.00   1421.524   21.08951
    -234.95      0.00   1421.519   21.08959
    -233.92      0.00   1421.514   21.08966
    -232.89      0.00   1421.509   21.08973
    -231.86      0.00   1421.504   21.08980
    -230.83      0.00   1421.499   21.08988
    -229.80      0.00   1421.495   21.08995
    -228.77      0.00   1421.490   21.09002
    -227.74      0.00   1421.485   21.09009
    -226.71      0.00   1421.480   21.09016
    -225.68      0.00   1421.475   21.09024
    -224.65      0.00   1421.470   21.09031
    -223.61      0.01   1421.465   21.09038
    -222.58      0.01   1421.460   21.09046
    -221.55      0.00   1421.455   21.09053
    -220.52      0.01   1421.451   21.09060
    -219.49      0.00   1421.446   21.09067
    -218.46      0.00   1421.441   21.09075
    -217.43      0.00   1421.436   21.09082
    -216.40      0.00   1421.431   21.09089
    -215.37      0.00   1421.426   21.09096
    -214.34      0.00   1421.421   21.09103
    -213.31      0.01   1421.417   21.09111
    -212.28      0.01   1421.411   21.09118
    -211.25      0.00   1421.407   21.09125
    -210.22      0.00   1421.402   21.09133
    -209.19      0.00   1421.397   21.09140
    -208.16      0.00   1421.392   21.09147
    -207.13      0.01   1421.387   21.09154
    -206.10      0.01   1421.382   21.09162
    -205.07      0.01   1421.377   21.09169
    -204.04      0.01   1421.372   21.09176
    -203.01      0.01   1421.368   21.09183
    -201.97      0.01   1421.363   21.09190
    -200.94      0.01   1421.358   21.09198
    -199.91      0.01   1421.353   21.09205
    -198.88      0.01   1421.348   21.09212
    -197.85      0.01   1421.343   21.09220
    -196.82      0.01   1421.338   21.09227
    -195.79      0.01   1421.333   21.09234
    -194.76      0.01   1421.329   21.09241
    -193.73      0.00   1421.324   21.09248
    -192.70      0.01   1421.319   21.09256
    -191.67      0.01   1421.314   21.09263
    -190.64      0.01   1421.309   21.09270
    -189.61      0.01   1421.304   21.09277
    -188.58      0.01   1421.299   21.09284
    -187.55      0.01   1421.294   21.09292
    -186.52      0.01   1421.289   21.09299
    -185.49      0.01   1421.285   21.09306
    -184.46      0.00   1421.280   21.09314
    -183.43      0.00   1421.275   21.09321
    -182.40      0.01   1421.270   21.09328
    -181.36      0.01   1421.265   21.09335
    -180.33      0.01   1421.260   21.09343
    -179.30      0.01   1421.255   21.09350
    -178.27      0.01   1421.250   21.09357
    -177.24      0.01   1421.246   21.09364
    -176.21      0.01   1421.241   21.09371
    -175.18      0.01   1421.236   21.09379
    -174.15      0.01   1421.231   21.09386
    -173.12      0.01   1421.226   21.09393
    -172.09      0.01   1421.221   21.09401
    -171.06      0.01   1421.216   21.09408
    -170.03      0.01   1421.211   21.09415
    -169.00      0.01   1421.207   21.09422
    -167.97      0.01   1421.202   21.09430
    -166.94      0.01   1421.197   21.09437
    -165.91      0.01   1421.192   21.09444
    -164.88      0.01   1421.187   21.09451
    -163.85      0.01   1421.182   21.09458
    -162.82      0.01   1421.177   21.09466
    -161.79      0.01   1421.172   21.09473
    -160.76      0.01   1421.167   21.09480
    -159.72      0.02   1421.162   21.09488
    -158.69      0.02   1421.158   21.09495
    -157.66      0.02   1421.153   21.09502
    -156.63      0.02   1421.148   21.09509
    -155.60      0.02   1421.143   21.09517
    -154.57      0.02   1421.138   21.09524
    -153.54      0.02   1421.133   21.09531
    -152.51      0.03   1421.128   21.09538
    -151.48      0.03   1421.124   21.09545
    -150.45      0.03   1421.119   21.09553
    -149.42      0.03   1421.114   21.09560
    -148.39      0.03   1421.109   21.09567
    -147.36      0.04   1421.104   21.09575
    -146.33      0.04   1421.099   21.09582
    -145.30      0.04   1421.094   21.09589
    -144.27      0.05   1421.089   21.09596
    -143.24      0.05   1421.084   21.09603
    -142.21      0.05   1421.079   21.09611
    -141.18      0.06   1421.075   21.09618
    -140.15      0.06   1421.070   21.09625
    -139.12      0.07   1421.065   21.09632
    -138.08      0.07   1421.060   21.09640
    -137.05      0.08   1421.055   21.09647
    -136.02      0.08   1421.050   21.09654
    -134.99      0.09   1421.045   21.09661
    -133.96      0.09   1421.040   21.09669
    -132.93      0.10   1421.036   21.09676
    -131.90      0.11   1421.031   21.09683
    -130.87      0.12   1421.026   21.09690
    -129.84      0.13   1421.021   21.09698
    -128.81      0.14   1421.016   21.09705
    -127.78      0.15   1421.011   21.09712
    -126.75      0.16   1421.006   21.09719
    -125.72      0.17   1421.001   21.09727
    -124.69      0.19   1420.997   21.09734
    -123.66      0.20   1420.992   21.09741
    -122.63      0.21   1420.987   21.09748
    -121.60      0.23   1420.982   21.09756
    -120.57      0.24   1420.977   21.09763
    -119.54      0.26   1420.972   21.09770
    -118.51      0.27   1420.967   21.09777
    -117.48      0.29   1420.962   21.09785
    -116.44      0.31   1420.957   21.09792
    -115.41      0.32   1420.953   21.09799
    -114.38      0.34   1420.948   21.09806
    -113.35      0.36   1420.943   21.09814
    -112.32      0.38   1420.938   21.09821
    -111.29      0.40   1420.933   21.09828
    -110.26      0.42   1420.928   21.09836
    -109.23      0.44   1420.923   21.09843
    -108.20      0.46   1420.918   21.09850
    -107.17      0.47   1420.914   21.09857
    -106.14      0.48   1420.909   21.09864
    -105.11      0.50   1420.904   21.09872
    -104.08      0.51   1420.899   21.09879
    -103.05      0.52   1420.894   21.09886
    -102.02      0.53   1420.889   21.09893
    -100.99      0.54   1420.884   21.09901
     -99.96      0.54   1420.879   21.09908
     -98.93      0.55   1420.875   21.09915
     -97.90      0.55   1420.870   21.09923
     -96.87      0.56   1420.865   21.09930
     -95.83      0.56   1420.860   21.09937
     -94.80      0.56   1420.855   21.09944
     -93.77      0.57   1420.850   21.09951
     -92.74      0.58   1420.845   21.09959
     -91.71      0.58   1420.840   21.09966
     -90.68      0.59   1420.835   21.09973
     -89.65      0.59   1420.831   21.09980
     -88.62      0.60   1420.826   21.09988
     -87.59      0.60   1420.821   21.09995
     -86.56      0.60   1420.816   21.10002
     -85.53      0.60   1420.811   21.10010
     -84.50      0.60   1420.806   21.10017
     -83.47      0.60   1420.801   21.10024
     -82.44      0.61   1420.796   21.10031
     -81.41      0.61   1420.792   21.10038
     -80.38      0.61   1420.787   21.10046
     -79.35      0.62   1420.782   21.10053
     -78.32      0.62   1420.777   21.10060
     -77.29      0.62   1420.772   21.10067
     -76.26      0.63   1420.767   21.10075
     -75.23      0.63   1420.762   21.10082
     -74.19      0.63   1420.757   21.10089
     -73.16      0.62   1420.752   21.10097
     -72.13      0.62   1420.747   21.10104
     -71.10      0.61   1420.743   21.10111
     -70.07      0.60   1420.738   21.10118
     -69.04      0.59   1420.733   21.10125
     -68.01      0.58   1420.728   21.10133
     -66.98      0.56   1420.723   21.10140
     -65.95      0.55   1420.718   21.10147
     -64.92      0.53   1420.713   21.10154
     -63.89      0.52   1420.708   21.10162
     -62.86      0.51   1420.704   21.10169
     -61.83      0.49   1420.699   21.10176
     -60.80      0.48   1420.694   21.10184
     -59.77      0.46   1420.689   21.10191
     -58.74      0.45   1420.684   21.10198
     -57.71      0.44   1420.679   21.10205
     -56.68      0.43   1420.674   21.10213
     -55.65      0.42   1420.669   21.10220
     -54.62      0.42   1420.665   21.10227
     -53.59      0.41   1420.660   21.10234
     -52.55      0.40   1420.655   21.10242
     -51.52      0.40   1420.650   21.10249
     -50.49      0.41   1420.645   21.10256
     -49.46      0.41   1420.640   21.10263
     -48.43      0.41   1420.635   21.10271
     -47.40      0.41   1420.630   21.10278
     -46.37      0.42   1420.625   21.10285
     -45.34      0.43   1420.621   21.10292
     -44.31      0.44   1420.616   21.10299
     -43.28      0.45   1420.611   21.10307
     -42.25      0.46   1420.606   21.10314
     -41.22      0.46   1420.601   21.10321
     -40.19      0.48   1420.596   21.10328
     -39.16      0.49   1420.591   21.10336
     -38.13      0.50   1420.586   21.10343
     -37.10      0.51   1420.582   21.10350
     -36.07      0.53   1420.577   21.10357
     -35.04      0.55   1420.572   21.10365
     -34.01      0.57   1420.567   21.10372
     -32.98      0.60   1420.562   21.10379
     -31.94      0.62   1420.557   21.10386
     -30.91      0.65   1420.552   21.10394
     -29.88      0.69   1420.547   21.10401
     -28.85      0.73   1420.542   21.10408
     -27.82      0.77   1420.538   21.10415
     -26.79      0.83   1420.533   21.10423
     -25.76      0.89   1420.528   21.10430
     -24.73      0.96   1420.523   21.10437
     -23.70      1.04   1420.518   21.10445
     -22.67      1.13   1420.513   21.10452
     -21.64      1.24   1420.508   21.10459
     -20.61      1.36   1420.503   21.10466
     -19.58      1.50   1420.499   21.10474
     -18.55      1.65   1420.494   21.10481
     -17.52      1.83   1420.489   21.10488
     -16.49      2.02   1420.484   21.10496
     -15.46      2.25   1420.479   21.10502
     -14.43      2.50   1420.474   21.10510
     -13.40      2.79   1420.469   21.10517
     -12.37      3.12   1420.464   21.10524
     -11.34      3.49   1420.459   21.10532
     -10.30      3.91   1420.454   21.10539
      -9.27      4.38   1420.450   21.10546
      -8.24      4.92   1420.445   21.10553
      -7.21      5.52   1420.440   21.10561
      -6.18      6.21   1420.435   21.10568
      -5.15      6.99   1420.430   21.10575
      -4.12      7.91   1420.425   21.10582
      -3.09      8.94   1420.421   21.10589
      -2.06      9.97   1420.416   21.10597
      -1.03     10.77   1420.411   21.10604
       0.00     11.23   1420.406   21.10611
       1.03     11.36   1420.401   21.10619
       2.06     11.24   1420.396   21.10626
       3.09     10.92   1420.391   21.10633
       4.12     10.44   1420.386   21.10641
       5.15      9.86   1420.381   21.10648
       6.18      9.20   1420.376   21.10655
       7.21      8.48   1420.372   21.10662
       8.24      7.74   1420.367   21.10670
       9.27      7.05   1420.362   21.10677
      10.30      6.40   1420.357   21.10684
      11.34      5.79   1420.352   21.10691
      12.37      5.20   1420.347   21.10699
      13.40      4.66   1420.342   21.10706
      14.43      4.17   1420.337   21.10713
      15.46      3.71   1420.333   21.10720
      16.49      3.30   1420.328   21.10728
      17.52      2.94   1420.323   21.10735
      18.55      2.60   1420.318   21.10742
      19.58      2.30   1420.313   21.10749
      20.61      2.04   1420.308   21.10756
      21.64      1.80   1420.303   21.10764
      22.67      1.59   1420.298   21.10771
      23.70      1.41   1420.293   21.10778
      24.73      1.24   1420.289   21.10785
      25.76      1.10   1420.284   21.10793
      26.79      0.97   1420.279   21.10800
      27.82      0.86   1420.274   21.10807
      28.85      0.76   1420.269   21.10815
      29.88      0.67   1420.264   21.10822
      30.91      0.60   1420.259   21.10829
      31.94      0.53   1420.254   21.10836
      32.98      0.47   1420.250   21.10844
      34.01      0.41   1420.245   21.10851
      35.04      0.37   1420.240   21.10858
      36.07      0.33   1420.235   21.10865
      37.10      0.29   1420.230   21.10873
      38.13      0.26   1420.225   21.10880
      39.16      0.23   1420.220   21.10887
      40.19      0.21   1420.215   21.10894
      41.22      0.19   1420.210   21.10902
      42.25      0.17   1420.206   21.10909
      43.28      0.15   1420.201   21.10916
      44.31      0.14   1420.196   21.10923
      45.34      0.12   1420.191   21.10931
      46.37      0.11   1420.186   21.10938
      47.40      0.10   1420.181   21.10945
      48.43      0.10   1420.176   21.10953
      49.46      0.09   1420.171   21.10960
      50.49      0.08   1420.167   21.10967
      51.52      0.07   1420.162   21.10974
      52.55      0.07   1420.157   21.10982
      53.59      0.07   1420.152   21.10989
      54.62      0.06   1420.147   21.10996
      55.65      0.06   1420.142   21.11003
      56.68      0.05   1420.137   21.11011
      57.71      0.05   1420.132   21.11018
      58.74      0.04   1420.127   21.11025
      59.77      0.04   1420.123   21.11032
      60.80      0.04   1420.118   21.11039
      61.83      0.03   1420.113   21.11047
      62.86      0.03   1420.108   21.11054
      63.89      0.03   1420.103   21.11061
      64.92      0.03   1420.098   21.11069
      65.95      0.02   1420.093   21.11076
      66.98      0.02   1420.089   21.11083
      68.01      0.02   1420.083   21.11090
      69.04      0.02   1420.079   21.11098
      70.07      0.01   1420.074   21.11105
      71.10      0.02   1420.069   21.11112
      72.13      0.02   1420.064   21.11119
      73.16      0.01   1420.059   21.11127
      74.19      0.01   1420.054   21.11134
      75.23      0.01   1420.049   21.11141
      76.26      0.01   1420.045   21.11148
      77.29      0.01   1420.040   21.11156
      78.32      0.01   1420.035   21.11163
      79.35      0.01   1420.030   21.11170
      80.38      0.01   1420.025   21.11177
      81.41      0.01   1420.020   21.11185
      82.44      0.01   1420.015   21.11192
      83.47      0.01   1420.010   21.11199
      84.50      0.01   1420.005   21.11206
      85.53      0.01   1420.001   21.11214
      86.56      0.01   1419.996   21.11221
      87.59      0.01   1419.991   21.11228
      88.62      0.00   1419.986   21.11236
      89.65      0.00   1419.981   21.11243
      90.68      0.00   1419.976   21.11250
      91.71      0.01   1419.971   21.11257
      92.74      0.01   1419.966   21.11265
      93.77      0.00   1419.961   21.11272
      94.80      0.00   1419.957   21.11279
      95.83      0.01   1419.952   21.11286
      96.87      0.01   1419.947   21.11294
      97.90      0.01   1419.942   21.11301
      98.93      0.01   1419.937   21.11308
      99.96      0.01   1419.932   21.11315
     100.99      0.01   1419.927   21.11323
     102.02      0.01   1419.922   21.11330
     103.05      0.01   1419.917   21.11337
     104.08      0.01   1419.913   21.11345
     105.11      0.01   1419.908   21.11352
     106.14      0.01   1419.903   21.11359
     107.17      0.01   1419.898   21.11366
     108.20      0.01   1419.893   21.11373
     109.23      0.01   1419.888   21.11381
     110.26      0.01   1419.883   21.11388
     111.29      0.01   1419.879   21.11395
     112.32      0.01   1419.874   21.11403
     113.35      0.01   1419.869   21.11410
     114.38      0.01   1419.864   21.11417
     115.41      0.01   1419.859   21.11424
     116.44      0.01   1419.854   21.11432
     117.48      0.01   1419.849   21.11439
     118.51      0.01   1419.844   21.11446
     119.54      0.01   1419.839   21.11453
     120.57      0.01   1419.835   21.11460
     121.60      0.01   1419.830   21.11468
     122.63      0.01   1419.825   21.11475
     123.66      0.01   1419.820   21.11482
     124.69      0.01   1419.815   21.11490
     125.72      0.01   1419.810   21.11497
     126.75      0.01   1419.805   21.11504
     127.78      0.01   1419.800   21.11511
     128.81      0.01   1419.795   21.11519
     129.84      0.01   1419.791   21.11526
     130.87      0.01   1419.786   21.11533
     131.90      0.01   1419.781   21.11541
     132.93      0.01   1419.776   21.11548
     133.96      0.01   1419.771   21.11555
     134.99      0.01   1419.766   21.11562
     136.02      0.01   1419.761   21.11569
     137.05      0.01   1419.756   21.11577
     138.08      0.01   1419.751   21.11584
     139.12      0.01   1419.747   21.11591
     140.15      0.01   1419.742   21.11599
     141.18      0.00   1419.737   21.11606
     142.21      0.01   1419.732   21.11613
     143.24      0.01   1419.727   21.11620
     144.27      0.01   1419.722   21.11628
     145.30      0.00   1419.717   21.11635
     146.33      0.01   1419.712   21.11642
     147.36      0.01   1419.708   21.11650
     148.39      0.01   1419.703   21.11657
     149.42      0.01   1419.698   21.11664
     150.45      0.01   1419.693   21.11671
     151.48      0.01   1419.688   21.11678
     152.51      0.01   1419.683   21.11686
     153.54      0.01   1419.678   21.11693
     154.57      0.01   1419.673   21.11700
     155.60      0.01   1419.669   21.11707
     156.63      0.00   1419.664   21.11715
     157.66      0.01   1419.659   21.11722
     158.69      0.01   1419.654   21.11729
     159.72      0.00   1419.649   21.11737
     160.76      0.00   1419.644   21.11744
     161.79      0.00   1419.639   21.11751
     162.82      0.01   1419.634   21.11758
     163.85      0.01   1419.630   21.11765
     164.88      0.00   1419.625   21.11773
     165.91      0.00   1419.620   21.11780
     166.94      0.01   1419.615   21.11787
     167.97      0.01   1419.610   21.11794
     169.00      0.00   1419.605   21.11802
     170.03      0.00   1419.600   21.11809
     171.06      0.00   1419.595   21.11816
     172.09      0.00   1419.590   21.11824
     173.12      0.00   1419.586   21.11831
     174.15      0.00   1419.581   21.11838
     175.18      0.01   1419.576   21.11846
     176.21      0.00   1419.571   21.11853
     177.24      0.00   1419.566   21.11860
     178.27      0.01   1419.561   21.11867
     179.30      0.01   1419.556   21.11874
     180.33      0.01   1419.551   21.11882
     181.36      0.00   1419.546   21.11889
     182.40      0.00   1419.542   21.11896
     183.43      0.00   1419.537   21.11904
     184.46      0.00   1419.532   21.11911
     185.49      0.00   1419.527   21.11918
     186.52      0.00   1419.522   21.11925
     187.55      0.00   1419.517   21.11933
     188.58      0.00   1419.512   21.11940
     189.61      0.00   1419.507   21.11947
     190.64      0.00   1419.502   21.11954
     191.67      0.01   1419.498   21.11962
     192.70      0.00   1419.493   21.11969
     193.73      0.00   1419.488   21.11976
     194.76      0.00   1419.483   21.11983
     195.79      0.00   1419.478   21.11991
     196.82      0.00   1419.473   21.11998
     197.85      0.00   1419.468   21.12005
     198.88      0.00   1419.464   21.12012
     199.91      0.00   1419.458   21.12020
     200.94      0.00   1419.454   21.12027
     201.97      0.00   1419.449   21.12034
     203.01      0.00   1419.444   21.12042
     204.04      0.00   1419.439   21.12049
     205.07      0.00   1419.434   21.12056
     206.10      0.00   1419.429   21.12063
     207.13      0.00   1419.424   21.12071
     208.16      0.00   1419.420   21.12078
     209.19      0.00   1419.415   21.12085
     210.22      0.00   1419.410   21.12092
     211.25      0.00   1419.405   21.12100
     212.28      0.00   1419.400   21.12107
     213.31      0.00   1419.395   21.12114
     214.34     -0.00   1419.390   21.12121
     215.37     -0.00   1419.385   21.12129
     216.40      0.00   1419.380   21.12136
     217.43     -0.00   1419.376   21.12143
     218.46     -0.00   1419.371   21.12151
     219.49     -0.00   1419.366   21.12158
     220.52     -0.00   1419.361   21.12165
     221.55     -0.00   1419.356   21.12172
     222.58     -0.00   1419.351   21.12180
     223.61      0.00   1419.346   21.12187
     224.65      0.00   1419.341   21.12194
     225.68     -0.00   1419.337   21.12201
     226.71     -0.00   1419.332   21.12209
     227.74     -0.00   1419.327   21.12216
     228.77      0.00   1419.322   21.12223
     229.80     -0.00   1419.317   21.12230
     230.83     -0.00   1419.312   21.12238
     231.86     -0.00   1419.307   21.12245
     232.89     -0.00   1419.302   21.12252
     233.92     -0.00   1419.297   21.12259
     234.95     -0.01   1419.293   21.12267
     235.98      0.00   1419.288   21.12274
     237.01      0.00   1419.283   21.12281
     238.04     -0.00   1419.278   21.12289
     239.07     -0.00   1419.273   21.12296
     240.10     -0.00   1419.268   21.12303
     241.13      0.00   1419.263   21.12310
     242.16      0.00   1419.258   21.12318
     243.19     -0.00   1419.254   21.12325
     244.22     -0.00   1419.249   21.12332
     245.25      0.00   1419.244   21.12339
     246.29      0.00   1419.239   21.12347
     247.32      0.00   1419.234   21.12354
     248.35      0.00   1419.229   21.12361
     249.38      0.00   1419.224   21.12369
     250.41      0.00   1419.219   21.12376
     251.44      0.00   1419.214   21.12383
     252.47      0.00   1419.210   21.12390
     253.50      0.01   1419.205   21.12398
     254.53      0.00   1419.200   21.12405
     255.56      0.00   1419.195   21.12412
     256.59      0.00   1419.190   21.12419
     257.62      0.00   1419.185   21.12427
     258.65      0.00   1419.180   21.12434
     259.68     -0.00   1419.175   21.12441
     260.71      0.01   1419.171   21.12449
     261.74      0.01   1419.166   21.12456
     262.77      0.00   1419.161   21.12463
     263.80      0.00   1419.156   21.12470
     264.83      0.00   1419.151   21.12477
     265.86      0.00   1419.146   21.12485
     266.89      0.00   1419.141   21.12492
     267.93     -0.00   1419.136   21.12499
     268.96      0.00   1419.131   21.12507
     269.99      0.00   1419.127   21.12514
     271.02      0.00   1419.122   21.12521
     272.05     -0.00   1419.117   21.12528
     273.08      0.00   1419.112   21.12536
     274.11      0.00   1419.107   21.12543
     275.14      0.00   1419.102   21.12550
     276.17      0.00   1419.097   21.12557
     277.20      0.00   1419.092   21.12565
     278.23      0.01   1419.088   21.12572
     279.26      0.01   1419.083   21.12579
     280.29      0.00   1419.078   21.12587
     281.32      0.00   1419.073   21.12594
     282.35      0.00   1419.068   21.12601
     283.38      0.00   1419.063   21.12608
     284.41      0.00   1419.058   21.12616
     285.44      0.00   1419.053   21.12623
     286.47      0.00   1419.048   21.12630
     287.50     -0.00   1419.044   21.12638
     288.54     -0.00   1419.039   21.12645
     289.57      0.00   1419.034   21.12652
     290.60      0.01   1419.029   21.12659
     291.63      0.00   1419.024   21.12667
     292.66      0.00   1419.019   21.12674
     293.69      0.00   1419.014   21.12681
     294.72      0.01   1419.009   21.12688
     295.75      0.01   1419.005   21.12696
     296.78      0.00   1419.000   21.12703
     297.81      0.01   1418.995   21.12710
     298.84      0.01   1418.990   21.12717
     299.87      0.00   1418.985   21.12725
     300.90      0.00   1418.980   21.12732
     301.93      0.00   1418.975   21.12739
     302.96      0.01   1418.970   21.12746
     303.99      0.00   1418.965   21.12754
     305.02      0.00   1418.961   21.12761
     306.05      0.01   1418.956   21.12768
     307.08      0.01   1418.951   21.12776
     308.11      0.01   1418.946   21.12783
     309.14      0.01   1418.941   21.12790
     310.18      0.01   1418.936   21.12797
     311.21      0.01   1418.931   21.12805
     312.24      0.00   1418.926   21.12812
     313.27      0.00   1418.922   21.12819
     314.30      0.00   1418.917   21.12827
     315.33      0.01   1418.912   21.12834
     316.36      0.00   1418.907   21.12841
     317.39      0.00   1418.902   21.12848
     318.42      0.00   1418.897   21.12856
     319.45      0.00   1418.892   21.12863
     320.48      0.00   1418.887   21.12870
     321.51     -0.00   1418.882   21.12877
     322.54      0.00   1418.878   21.12885
     323.57      0.00   1418.873   21.12892
     324.60     -0.00   1418.868   21.12899
     325.63     -0.00   1418.863   21.12906
     326.66     -0.00   1418.858   21.12914
     327.69      0.00   1418.853   21.12921
     328.72      0.00   1418.848   21.12928
     329.75     -0.00   1418.843   21.12935
     330.78     -0.00   1418.839   21.12943
     331.82     -0.00   1418.834   21.12950
     332.85     -0.00   1418.829   21.12957
     333.88     -0.00   1418.824   21.12965
     334.91      0.00   1418.819   21.12972
     335.94     -0.00   1418.814   21.12979
     336.97     -0.00   1418.809   21.12986
     338.00     -0.00   1418.804   21.12994
     339.03      0.00   1418.799   21.13001
     340.06      0.00   1418.795   21.13008
     341.09     -0.00   1418.790   21.13016
     342.12     -0.00   1418.785   21.13023
     343.15     -0.00   1418.780   21.13030
     344.18      0.00   1418.775   21.13037
     345.21      0.00   1418.770   21.13045
     346.24     -0.00   1418.765   21.13052
     347.27     -0.00   1418.760   21.13059
     348.30     -0.00   1418.755   21.13066
     349.33     -0.00   1418.751   21.13074
     350.36     -0.00   1418.746   21.13081
     351.39      0.00   1418.741   21.13088
     352.43      0.00   1418.736   21.13095
     353.46     -0.00   1418.731   21.13103
     354.49      0.00   1418.726   21.13110
     355.52      0.00   1418.721   21.13117
     356.55      0.00   1418.716   21.13125
     357.58     -0.00   1418.712   21.13132
     358.61     -0.00   1418.707   21.13139
     359.64      0.00   1418.702   21.13146
     360.67     -0.00   1418.697   21.13154
     361.70     -0.00   1418.692   21.13161
     362.73     -0.00   1418.687   21.13168
     363.76      0.00   1418.682   21.13176
     364.79      0.00   1418.677   21.13183
     365.82     -0.00   1418.672   21.13190
     366.85     -0.00   1418.668   21.13197
     367.88     -0.00   1418.663   21.13205
     368.91     -0.00   1418.658   21.13212
     369.94     -0.01   1418.653   21.13219
     370.97     -0.01   1418.648   21.13227
     372.00     -0.01   1418.643   21.13234
     373.03     -0.00   1418.638   21.13241
     374.07     -0.01   1418.633   21.13248
     375.10     -0.01   1418.629   21.13255
     376.13     -0.01   1418.624   21.13263
     377.16     -0.00   1418.619   21.13270
     378.19     -0.01   1418.614   21.13277
     379.22     -0.01   1418.609   21.13285
     380.25     -0.01   1418.604   21.13292
     381.28     -0.01   1418.599   21.13299
     382.31     -0.01   1418.594   21.13306
     383.34     -0.01   1418.589   21.13314
     384.37     -0.01   1418.585   21.13321
     385.40     -0.01   1418.580   21.13328
     386.43     -0.01   1418.575   21.13336
     387.46     -0.00   1418.570   21.13343
     388.49     -0.00   1418.565   21.13350
     389.52     -0.01   1418.560   21.13357
     390.55     -0.01   1418.555   21.13364
     391.58     -0.01   1418.550   21.13372
     392.61     -0.00   1418.546   21.13379
     393.64     -0.00   1418.541   21.13386
     394.67     -0.01   1418.536   21.13394
     395.71     -0.00   1418.531   21.13401
     396.74     -0.00   1418.526   21.13408
     397.77     -0.00   1418.521   21.13416
     398.80     -0.00   1418.516   21.13423
     399.83      0.00   1418.511   21.13430
   
